GC 68 invokes.
Index    Invoke Time(sec)       Use Size(byte)     Total Size(byte)         Total Object                    GC Time(ms)
    1               0.033               181080               685440                17136         1.67500000000000981437
    2               0.046 18446744073709486336               685440                17136         2.27299999999999702283
    3               0.070 18446744073709491296               685440                17136         0.82500000000002016165
    4               0.084               179600               685440                17136         0.20499999999998297362
    5               0.096               179600               685440                17136         0.85499999999999465317
    6               0.107 18446744073709449896               685440                17136         1.77400000000002555645
    7               0.152               179560               685440                17136         1.84800000000009956302
    8               0.179               179520               685440                17136         2.02300000000016355628
    9               0.204               179520               685440                17136         1.44099999999997008260
   10               0.226               179520               685440                17136         1.35200000000007536372
   11               0.250               179520               685440                17136         1.74099999999971499776
   12               0.277               179520               685440                17136         1.51500000000004408918
   13               0.301               179520               685440                17136         1.54200000000009884715
   14               0.326               179520               685440                17136         1.93900000000002403766
   15               0.353               179520               685440                17136         1.93400000000010230394
   16               0.385               179520               685440                17136         1.88800000000005629985
   17               0.410               179520               685440                17136         2.14299999999989498889
   18               0.444               179520               685440                17136         2.01699999999993551114
   19               0.471               179520               685440                17136         1.96999999999958319563
   20               0.504               179520               685440                17136         1.89299999999981150012
   21               0.533               179520               685440                17136         1.75399999999970024334
   22               0.558               179520               685440                17136         1.70999999999998930633
   23               0.581               179520               685440                17136         1.41200000000019088020
   24               0.602               179520               685440                17136         2.29800000000013326940
   25               0.637               179520               685440                17136         2.28799999999984571275
   26               0.669               179520               685440                17136         2.18799999999985672616
   27               0.703               179520               685440                17136         2.15900000000002201261
   28               0.737               179520               685440                17136         1.76200000000004131095
   29               0.765               179520               685440                17136         1.29899999999993909228
   30               0.785               179520               685440                17136         1.67899999999998605915
   31               0.809               179520               685440                17136         1.57099999999998907185
   32               0.835               179520               685440                17136         1.78099999999981051246
   33               0.860               179520               685440                17136         1.58700000000000507328
   34               0.884               179520               685440                17136         1.90599999999996327915
   35               0.910               179520               685440                17136         1.71899999999958197350
   36               0.933               179520               685440                17136         1.49300000000063270988
   37               0.958               179520               685440                17136         1.48500000000062470917
   38               0.982               179520               685440                17136         1.65499999999907387860
   39               1.004               179520               685440                17136         1.68299999999854676958
   40               1.027               179520               685440                17136         1.38800000000038892267
   41               1.049               179520               685440                17136         1.74399999999996779820
   42               1.071               179520               685440                17136         1.58999999999998031797
   43               1.095               179520               685440                17136         1.50100000000019662139
   44               1.119               179520               685440                17136         2.04600000000043635850
   45               1.145               179520               685440                17136         1.88499999999947043250
   46               1.173               179520               685440                17136         1.66600000000083348084
   47               1.202               179520               685440                17136         1.43700000000079874951
   48               1.221               179520               685440                17136         1.45700000000004159517
   49               1.244               179520               685440                17136         1.86900000000012056489
   50               1.270               179520               685440                17136         1.48900000000051768723
   51               1.294               179520               685440                17136         1.62199999999979027621
   52               1.316               179520               685440                17136         1.64999999999970725639
   53               1.336               179520               685440                17136         1.53500000000073022477
   54               1.357               179520               685440                17136         1.74599999999958122032
   55               1.383               179520               685440                17136         1.82200000000043438320
   56               1.408               179520               685440                17136         1.76799999999954771113
   57               1.432               179520               685440                17136         1.54699999999929893590
   58               1.454               179520               685440                17136         1.49900000000013911006
   59               1.473               179520               685440                17136         1.85500000000016207480
   60               1.499               179520               685440                17136         1.46800000000024688518
   61               1.522               179520               685440                17136         1.64700000000062019012
   62               1.546               179520               685440                17136         1.43100000000018212631
   63               1.568               179520               685440                17136         1.66999999999917214666
   64               1.588               179520               685440                17136         1.65400000000048841287
   65               1.615               179520               685440                17136         1.63600000000041490011
   66               1.641                    0                    0                    0         0.88799999999977785592
